pattern,height,speed,width
circle,0.990670172315,267.852883072,-1.78534605964
time,slider velocity y,slider velocity x,widget x,widget y,slider param,slider y,slider x
7.98699998856,264.616230113,36.0362299,42.9307880728,300.0,0.0,300.0,42.9307880728
8.08000016212,251.928170553,88.3030202829,42.9307880728,301.0,0.0930001735687,324.652600424,46.0416878891
8.1740000248,231.944093956,132.484283466,42.9307880728,306.0,0.18700003624,348.385425907,54.2001500169
8.20500016212,224.561337046,145.149680864,42.9307880728,308.0,0.218000173569,355.928576468,57.6712587657
8.23600006104,215.710680908,157.83545117,42.9307880728,312.0,0.249000072479,363.07641138,61.8546883845
8.26800012589,208.750970075,167.007944745,42.9307880728,317.0,0.281000137329,370.237210761,66.5653466162
8.2990000248,199.394744259,178.553748647,42.9307880728,318.0,0.31200003624,377.172529579,71.1309721653
8.33000016212,192.485385882,185.597742419,42.9307880728,325.0,0.343000173569,383.435347044,76.5830207458
8.36100006104,185.576080644,192.641682016,43.9307880728,329.0,0.374000072479,389.698116343,82.0350273952
8.39199995995,177.366873305,200.523139221,44.9307880728,337.0,0.40499997139,395.853831103,87.5961746417
8.4240000248,170.384707084,206.204794335,45.9307880728,339.0,0.43700003624,401.605437024,93.9512024211
8.45500016212,163.620717301,211.708910955,48.9307880728,346.0,0.468000173569,407.177318652,100.107650379
8.48600006104,156.870657251,217.04140054,50.9307880728,350.0,0.499000072479,412.643025824,106.350414323
8.51699995995,150.407627818,221.311562069,54.9307880728,356.0,0.52999997139,417.538470823,113.057222361
8.54800009727,143.944548678,225.58175644,57.9307880728,360.0,0.561000108719,422.433953472,119.764081981
8.58000016212,137.272999148,229.989688423,64.9307880728,367.0,0.593000173569,427.487342771,126.687275271
8.61100006104,132.28100553,232.711468988,68.9307880728,371.0,0.624000072479,431.756830188,133.807657163
8.64199995995,126.17280889,236.011867186,75.9307880728,379.0,0.65499997139,436.005972243,140.941481354
8.67300009727,120.064565271,239.312290767,81.9307880728,389.0,0.686000108719,440.255146978,148.07536041
8.70399999619,116.263884564,241.256870454,92.9307880728,401.0,0.717000007629,444.163363782,155.393394304
8.73600006104,110.320519581,243.880120635,101.930788073,410.0,0.749000072479,447.91907127,163.09806886
8.76699995995,104.562915198,246.421380811,113.930788073,423.0,0.77999997139,451.557393661,170.561932871
8.79800009727,98.8052665335,248.962660532,121.930788073,430.0,0.811000108719,455.195744034,178.025854285
8.82899999619,96.279012754,249.865759071,133.930788073,441.0,0.842000007629,458.259568318,185.743287153
8.86000013351,90.8377812829,251.808626902,143.930788073,447.0,0.873000144958,461.322153825,193.46133654
8.89199995995,85.2210815632,253.814148127,156.930788073,453.0,0.90499997139,464.483501261,201.428276755
8.92300009727,81.2403613922,255.235519964,165.930788073,456.0,0.936000108719,467.400035638,209.198475742
8.92300009727,81.2403613922,255.235519964,170.930788073,458.0,0.936000108719,467.400035638,209.198475742
8.95399999619,78.2335266459,256.086428801,179.930788073,461.0,0.967000007629,469.918478629,217.110751059
8.98500013351,73.0610031529,257.550209264,187.930788073,462.0,0.998000144958,472.436940989,225.023087229
8.98500013351,73.0610031529,257.550209264,190.930788073,462.0,0.998000144958,472.436940989,225.023087229
9.01600003242,67.8885194413,259.013978468,199.930788073,464.0,1.02900004387,474.955383979,232.935362546
9.04800009727,64.5548756537,259.957371504,206.930788073,465.0,1.06100010872,477.354508565,241.159675989
9.07899999619,61.7252226556,260.568974872,214.930788073,465.0,1.09200000763,479.355703185,249.218328227
9.11000013351,56.7688994978,261.640238358,218.930788073,465.0,1.12300014496,481.356913195,257.277042443
9.11000013351,56.7688994978,261.640238358,222.930788073,465.0,1.12300014496,481.356913195,257.277042443
9.14100003242,51.8126144585,262.711493605,227.930788073,467.0,1.15400004387,483.358107815,265.335694681
9.17200016975,48.5668072616,263.41304486,236.930788073,467.0,1.1850001812,485.188266229,273.43138012
9.17200016975,48.5668072616,263.41304486,240.930788073,467.0,1.1850001812,485.188266229,273.43138012
9.20399999619,46.3847119143,263.749800561,249.930788073,468.0,1.21700000763,486.742395632,281.860551836
9.23500013351,41.5914714084,264.489525827,258.930788073,471.0,1.24800014496,488.247973326,290.0263924
9.23500013351,41.5914714084,264.489525827,263.930788073,471.0,1.24800014496,488.247973326,290.0263924
9.26600003242,36.7982677667,265.229245405,270.930788073,474.0,1.27900004387,489.753539442,298.192170163
9.29700016975,33.1048096096,265.799244828,277.930788073,477.0,1.3100001812,491.149138902,306.374983312
9.29700016975,33.1048096096,265.799244828,280.930788073,477.0,1.3100001812,491.149138902,306.374983312
9.32800006866,32.0338407048,265.901923638,282.930788073,478.0,1.34100008011,492.175384653,314.614733032
9.36000013351,27.2005686597,266.365312093,283.930788073,478.0,1.37300014496,493.234740708,323.120326104
9.60899996758,-0.222826768814,267.781234418,284.930788073,478.0,1.62199997902,497.809295254,389.609288956
9.6400001049,-4.83452338495,267.706351928,290.930788073,479.0,1.65300011635,497.905122046,397.912212149
9.67200016975,-9.59497296675,267.62905406,300.930788073,479.0,1.6850001812,498.004039786,406.482950976
9.67200016975,-9.59497296675,267.62905406,306.930788073,481.0,1.6850001812,498.004039786,406.482950976
9.70300006866,-11.7852016688,267.59349019,327.930788073,485.0,1.71600008011,497.857722596,414.781878508
9.73399996758,-13.9327209022,267.438392654,347.930788073,488.0,1.74699997902,497.492382536,423.077249653
9.73399996758,-13.9327209022,267.438392654,359.930788073,490.0,1.74699997902,497.492382536,423.077249653
9.7650001049,-18.5838152981,267.102482611,376.930788073,492.0,1.77800011635,497.127039665,431.372684597
9.79600000381,-23.234873923,266.766575152,388.930788073,494.0,1.80900001526,496.761699605,439.668055742
9.79600000381,-23.234873923,266.766575152,395.930788073,495.0,1.80900001526,496.761699605,439.668055742
9.82800006866,-26.7886655133,266.509914206,407.930788073,495.0,1.84100008011,496.25983973,448.222056374
9.85899996758,-27.9408739814,266.360484012,417.930788073,495.0,1.87199997902,495.429393808,456.483836773
9.85899996758,-27.9408739814,266.360484012,424.930788073,495.0,1.87199997902,495.429393808,456.483836773
9.8900001049,-32.6816999252,265.745645149,431.930788073,495.0,1.90300011635,494.598941498,464.745680713
9.92100000381,-37.4224894078,265.130811016,438.930788073,495.0,1.93400001526,493.768495575,473.007461112
9.92100000381,-37.4224894078,265.130811016,442.930788073,495.0,1.93400001526,493.768495575,473.007461112
9.95200014114,-42.0815846816,264.526571824,447.930788073,495.0,1.96500015259,492.929870198,481.268245085
9.98399996758,-42.5274752739,264.441886558,452.930788073,495.0,1.99699997902,491.583266792,489.73304947
9.98399996758,-42.5274752739,264.441886558,455.930788073,495.0,1.99699997902,491.583266792,489.73304947
10.0150001049,-47.4095570462,263.514662711,457.930788073,495.0,2.02800011635,490.278731888,497.933409524
10.0460000038,-52.291601271,262.587445994,461.930788073,495.0,2.05900001526,488.974207017,506.133706509
10.0460000038,-52.291601271,262.587445994,463.930788073,495.0,2.05900001526,488.974207017,506.133706509
10.0770001411,-57.1736830434,261.660222146,467.930788073,495.0,2.09000015259,487.669672113,514.334066563
10.1080000401,-57.8392072642,261.533239809,469.930788073,494.0,2.1210000515,485.942591094,522.454110051
10.1080000401,-57.8392072642,261.533239809,472.930788073,494.0,2.1210000515,485.942591094,522.454110051
10.1400001049,-63.0790679232,260.199961415,476.930788073,493.0,2.15300011635,484.092022039,530.823264305
10.1710000038,-68.1551560965,258.9083548,482.930788073,491.0,2.18400001526,482.299292745,538.930839619
10.2020001411,-73.2312833099,257.616738252,486.930788073,491.0,2.21500015259,480.506549664,547.038477288
10.2330000401,-74.5473492439,257.257620488,491.930788073,490.0,2.2460000515,478.303552939,555.041660379
10.2330000401,-74.5473492439,257.257620488,495.930788073,490.0,2.2460000515,478.303552939,555.041660379
10.263999939,-79.8705703666,255.526463561,503.930788073,487.0,2.27699995041,476.003214828,563.020075032
10.2960000038,-85.3655373543,253.739453414,511.930788073,486.0,2.30900001526,473.628659706,571.255901446
10.2960000038,-85.3655373543,253.739453414,518.930788073,484.0,2.30900001526,473.628659706,571.255901446
10.3270001411,-90.6887994176,252.008283172,525.930788073,481.0,2.34000015259,471.328303904,579.23437746
10.3580000401,-92.8922098596,251.171039011,533.930788073,480.0,2.3710000515,468.564407159,587.06203889
10.388999939,-98.5130113263,248.895614439,538.930788073,480.0,2.40199995041,465.731746936,594.86733785
10.4200000763,-104.133856022,246.620172368,548.930788073,480.0,2.43300008774,462.899064927,602.672696839
10.4520001411,-109.508110967,244.444555273,555.930788073,480.0,2.46500015259,459.932223769,610.71250017
10.4830000401,-113.305219007,242.557297392,566.930788073,480.0,2.4960000515,456.537483399,618.290256673
10.513999939,-119.264873596,239.595199665,575.930788073,480.0,2.52699995041,453.142743029,625.868013175
10.5450000763,-125.22457402,236.633079156,581.930788073,480.0,2.55800008774,449.747976551,633.445827958
10.5759999752,-129.67868464,234.314834513,584.930788073,477.0,2.58899998665,446.108099908,640.901745588
10.6080000401,-136.200370911,230.353249717,585.930788073,476.0,2.6210000515,441.988639851,648.418220666
10.8570001125,-189.856401241,188.669296094,586.930788073,476.0,2.87000012398,404.362793628,703.275238408
10.8880000114,-198.808928004,178.850417182,606.930788073,463.0,2.90100002289,398.676873276,709.308727528
10.9200000763,-205.89230925,170.50276256,659.930788073,426.0,2.93300008774,392.508883832,715.260471387
10.9509999752,-213.828249197,160.732331582,692.930788073,402.0,2.96399998665,386.533675651,721.026192764
10.9820001125,-222.378949895,148.156318583,719.930788073,379.0,2.99500012398,380.08526756,726.234353906
11.0130000114,-228.799098708,138.091147063,729.930788073,367.0,3.02600002289,373.423860449,731.191400517
11.0440001488,-238.268106622,121.125984172,734.930788073,359.0,3.05700016022,366.762402107,736.148485253
11.0759999752,-244.165138638,108.04139878,735.930788073,357.0,3.08899998665,359.26097508,740.285347165
11.1380000114,-256.816310966,72.8622909207,736.930788073,353.0,3.15100002289,344.452721315,747.730743023
11.1690001488,-260.352778251,59.0219070075,740.930788073,348.0,3.18200016022,336.614361668,750.470785791
11.2000000477,-264.678620197,34.5973820165,742.930788073,344.0,3.21300005913,328.776062304,753.210807486
11.2320001125,-266.187317346,17.8616510149,744.930788073,336.0,3.24500012398,320.356606102,754.754525239
11.2630000114,-266.735191926,-2.27410072254,746.930788073,330.0,3.27600002289,312.16466273,756.110519187
11.2940001488,-265.721887804,-24.0994707467,750.930788073,322.0,3.30700016022,303.915106064,756.694893105
11.3250000477,-264.178930336,-38.8230116635,750.930788073,319.0,3.33800005913,295.61264673,756.569096403
11.3250000477,-264.178930336,-38.8230116635,750.930788073,318.0,3.33800005913,295.61264673,756.569096403
11.3559999466,-259.168023124,-64.3930915072,750.930788073,314.0,3.36899995804,287.331074489,756.243986395
11.3880000114,-255.150948163,-78.4209513318,752.930788073,302.0,3.40100002289,278.920022442,754.594273627
11.4190001488,-248.582180905,-97.6583903293,752.930788073,297.0,3.43200016022,270.771796189,752.996110543
11.4500000477,-242.03440455,-112.809770761,752.930788073,290.0,3.46300005913,262.915995935,750.377009957
11.4500000477,-242.03440455,-112.809770761,752.930788073,287.0,3.46300005913,262.915995935,750.377009957
11.4809999466,-236.454515661,-124.581231767,751.930788073,280.0,3.49399995804,255.156984427,747.419917428
11.5120000839,-226.678065717,-141.715475932,750.930788073,273.0,3.52500009537,247.53963583,744.163820957
11.5120000839,-226.678065717,-141.715475932,750.930788073,269.0,3.52500009537,247.53963583,744.163820957
11.5440001488,-219.933938949,-151.749839839,748.930788073,262.0,3.55700016022,240.106282856,739.896197227
11.5750000477,-212.60476867,-162.368964517,747.930788073,254.0,3.58800005913,232.905260237,735.761958598
11.5750000477,-212.60476867,-162.368964517,745.930788073,250.0,3.58800005913,232.905260237,735.761958598
11.6059999466,-203.531952577,-173.395053832,744.930788073,241.0,3.61899995804,226.139157002,730.980617755
11.6370000839,-196.643227933,-181.171486459,740.930788073,234.0,3.65000009537,219.591417852,725.87426599
11.6370000839,-196.643227933,-181.171486459,738.930788073,229.0,3.65000009537,219.591417852,725.87426599
11.6679999828,-188.639990572,-189.941234251,732.930788073,223.0,3.68099999428,213.04372906,720.767953497
11.7000000477,-180.808279727,-197.101876483,723.930788073,219.0,3.71300005913,206.919911813,714.779925887
11.7000000477,-180.808279727,-197.101876483,720.930788073,217.0,3.71300005913,206.919911813,714.779925887
11.9179999828,-134.629660737,-231.266212818,711.930788073,224.0,3.93099999428,170.373181563,669.465129658
11.9490001202,-128.371810234,-234.941318425,696.930788073,226.0,3.96200013161,165.859363239,662.495684884
11.9490001202,-128.371810234,-234.941318425,688.930788073,226.0,3.96200013161,165.859363239,662.495684884
11.9800000191,-124.027472909,-237.343883564,666.930788073,219.0,3.99300003052,161.676166103,655.332147142
12.0120000839,-117.93659291,-240.270137741,645.930788073,205.0,4.02500009537,157.662722047,647.758534031
12.0120000839,-117.93659291,-240.270137741,637.930788073,200.0,4.02500009537,157.662722047,647.758534031
12.0429999828,-112.03608411,-243.104931485,626.930788073,192.0,4.05599999428,153.774718675,640.421635124
12.0740001202,-106.385911175,-245.819455848,618.930788073,184.0,4.08700013161,149.911723525,633.072650671
12.0740001202,-106.385911175,-245.819455848,615.930788073,183.0,4.08700013161,149.911723525,633.072650671
12.1050000191,-103.184673314,-247.070098653,611.930788073,179.0,4.11800003052,146.613771033,625.45227239
12.1360001564,-97.6171196047,-249.245201314,607.930788073,176.0,4.14900016785,143.315793177,617.8318355
12.1360001564,-97.6171196047,-249.245201314,606.930788073,175.0,4.14900016785,143.315793177,617.8318355
12.1679999828,-91.8700240204,-251.490446452,601.930788073,172.0,4.18099999428,139.911462484,609.96565558
12.1990001202,-88.42614006,-252.835884962,595.930788073,166.0,4.21200013161,136.825851603,602.262252275
12.1990001202,-88.42614006,-252.835884962,594.930788073,165.0,4.21200013161,136.825851603,602.262252275
12.2300000191,-84.4421426372,-254.08197425,587.930788073,160.0,4.24300003052,134.0846502,594.4243654
12.2610001564,-79.1640923267,-255.732809141,581.930788073,152.0,4.27400016785,131.343427715,586.586418245
12.2610001564,-79.1640923267,-255.732809141,578.930788073,149.0,4.27400016785,131.343427715,586.586418245
12.2920000553,-73.886082609,-257.383631337,574.930788073,143.0,4.30500006676,128.602226312,578.74853137
12.3240001202,-71.4002467405,-258.161135215,569.930788073,139.0,4.33700013161,126.068830199,570.565108689
12.3240001202,-71.4002467405,-258.161135215,568.930788073,137.0,4.33700013161,126.068830199,570.565108689
12.3550000191,-67.3907259168,-259.136343274,564.930788073,133.0,4.36800003052,123.855429768,562.562139595
12.3860001564,-62.3509544267,-260.362132088,558.930788073,130.0,4.39900016785,121.642012313,554.55910895
12.3860001564,-62.3509544267,-260.362132088,557.930788073,129.0,4.39900016785,121.642012313,554.55910895
12.4170000553,-57.3112216969,-261.587911474,552.930788073,126.0,4.43000006676,119.428611882,546.556139856
12.4479999542,-55.1429913722,-262.115275161,546.930788073,123.0,4.46099996567,117.502361692,538.483329192
12.4479999542,-55.1429913722,-262.115275161,543.930788073,122.0,4.46099996567,117.502361692,538.483329192
12.4800000191,-51.6448995285,-262.743327067,536.930788073,119.0,4.49300003052,115.737782392,530.095623388
12.5110001564,-46.7902315894,-263.61494039,531.930788073,116.0,4.52400016785,114.028342087,521.970013862
12.5110001564,-46.7902315894,-263.61494039,526.930788073,115.0,4.52400016785,114.028342087,521.970013862
12.5420000553,-41.935600987,-264.486547008,519.930788073,113.0,4.55500006676,112.318914928,513.844466829
12.5729999542,-39.482841588,-264.926918584,514.930788073,113.0,4.58599996567,110.849674891,505.675796292
12.5729999542,-39.482841588,-264.926918584,511.930788073,113.0,4.58599996567,110.849674891,505.675796292
12.6040000916,-37.0113765175,-265.22317534,506.930788073,113.0,4.617000103,109.625701379,497.463025434
12.8849999905,-4.50427854071,-267.724987323,505.930788073,113.0,4.89800000191,102.511141426,422.597242059
12.9160001278,0.105682543688,-267.756735096,500.930788073,113.0,4.92900013924,102.223482579,414.298750105
12.9479999542,4.86430515847,-267.789506667,481.930788073,113.0,4.96099996567,101.92654734,405.732649273
12.9790000916,5.59149978103,-267.794514694,466.930788073,111.0,4.992000103,102.027165139,397.431483344
13.0099999905,9.16341519203,-267.620119222,445.930788073,108.0,5.02300000191,102.200501067,389.12988046
13.0410001278,13.7920605159,-267.394129888,436.930788073,108.0,5.05400013924,102.373838328,380.828213728
13.0720000267,18.4206702415,-267.168142292,427.930788073,108.0,5.08500003815,102.547174256,372.526610844
13.1040000916,20.522547585,-267.065520071,416.930788073,108.0,5.117000103,102.993709375,363.97023466
13.1349999905,23.0289178797,-266.801024783,401.930788073,112.0,5.14800000191,103.629906276,355.691230536
13.1660001278,27.7262410409,-266.305319962,390.930788073,115.0,5.17900013924,104.266108069,347.412162738
13.1970000267,32.4235280755,-265.809618952,378.930788073,119.0,5.21000003815,104.90230497,339.133158613
13.228000164,35.6751358182,-265.466479343,371.930788073,121.0,5.24100017548,105.683078305,330.869347336
13.2599999905,37.3639039212,-265.188770566,361.930788073,124.0,5.27300000191,106.824676459,322.374466074
13.2910001278,42.1808867961,-264.396643799,354.930788073,125.0,5.30400013924,107.930610569,314.144968758
13.3220000267,46.997832624,-263.604523123,343.930788073,126.0,5.33500003815,109.036536173,305.915534734
13.353000164,51.2137214177,-262.911243025,335.930788073,129.0,5.36600017548,110.20257969,297.695922085
13.3840000629,52.3040343879,-262.663766542,326.930788073,129.0,5.39700007439,111.790199877,289.545700129
13.4160001278,57.4539036401,-261.494862232,319.930788073,129.0,5.42900013924,113.429042284,281.132523302
13.4470000267,62.4428130992,-260.36249217,304.930788073,129.0,5.46000003815,115.016662471,272.982301346
13.478000164,67.3070302168,-259.25842446,295.930788073,129.0,5.49100017548,116.616767939,264.834847813
13.478000164,67.3070302168,-259.25842446,291.930788073,129.0,5.49100017548,116.616767939,264.834847813
13.5090000629,68.4975656204,-258.907368911,282.930788073,129.0,5.52200007439,118.703279071,256.797862863
13.5399999619,73.7116193372,-257.36989049,272.930788073,129.0,5.5529999733,120.789790204,248.760877913
13.5399999619,73.7116193372,-257.36989049,267.930788073,129.0,5.5529999733,120.789790204,248.760877913
13.5720000267,79.0938967939,-255.782807599,255.930788073,129.0,5.58500003815,122.943619536,240.464591518
13.603000164,84.1266131832,-254.298800478,248.930788073,132.0,5.61600017548,125.048284459,232.432893068
13.603000164,84.1266131832,-254.298800478,245.930788073,134.0,5.61600017548,125.048284459,232.432893068
13.6340000629,86.1677359127,-253.542715763,241.930788073,140.0,5.64700007439,127.656200963,224.54965596
13.6649999619,91.6590206146,-251.50860171,241.930788073,142.0,5.6779999733,130.264117467,216.666418852
13.8840000629,127.624705658,-235.24115568,234.930788073,144.0,5.89700007439,152.407337627,162.426917901
13.9149999619,133.793425094,-231.793885096,222.930788073,147.0,5.9279999733,156.145854924,155.012732564
13.9149999619,133.793425094,-231.793885096,215.930788073,149.0,5.9279999733,156.145854924,155.012732564
13.9460000992,139.962191974,-228.346587999,202.930788073,152.0,5.95900011063,159.884400975,147.598490205
